%% wavelength, n, k
    0.3000000000  1.73756000e+00  0.00000000e+00  
    0.3200000000  1.72717000e+00  0.00000000e+00  
    0.3400000000  1.71886000e+00  0.00000000e+00  
    0.3600000000  1.71210000e+00  0.00000000e+00  
    0.3800000000  1.70652000e+00  0.00000000e+00  
    0.4000000000  1.70185000e+00  0.00000000e+00  
    0.4200000000  1.69791000e+00  0.00000000e+00  
    0.4400000000  1.69454000e+00  0.00000000e+00  
    0.4600000000  1.69164000e+00  0.00000000e+00  
    0.4800000000  1.68912000e+00  0.00000000e+00  
    0.5000000000  1.68691000e+00  0.00000000e+00  
    0.5200000000  1.68496000e+00  0.00000000e+00  
    0.5400000000  1.68324000e+00  0.00000000e+00  
    0.5600000000  1.68169000e+00  0.00000000e+00  
    0.5800000000  1.68031000e+00  0.00000000e+00  
    0.6000000000  1.67906000e+00  0.00000000e+00  
    0.6200000000  1.67792000e+00  0.00000000e+00  
    0.6400000000  1.67689000e+00  0.00000000e+00  
    0.6600000000  1.67594000e+00  0.00000000e+00  
    0.6800000000  1.67507000e+00  0.00000000e+00  
    0.7000000000  1.67427000e+00  0.00000000e+00  
    0.7200000000  1.67353000e+00  0.00000000e+00  
    0.7400000000  1.67283000e+00  0.00000000e+00  
    0.7600000000  1.67219000e+00  0.00000000e+00  
    0.7800000000  1.67158000e+00  0.00000000e+00  
    0.8000000000  1.67101000e+00  0.00000000e+00  
    0.8200000000  1.67047000e+00  0.00000000e+00  
    0.8400000000  1.66996000e+00  0.00000000e+00  
    0.8600000000  1.66948000e+00  0.00000000e+00  
    0.8800000000  1.66902000e+00  0.00000000e+00  
    0.9000000000  1.66858000e+00  0.00000000e+00  
    0.9200000000  1.66816000e+00  0.00000000e+00  
    0.9400000000  1.66776000e+00  0.00000000e+00  
    0.9600000000  1.66737000e+00  0.00000000e+00  
    0.9800000000  1.66699000e+00  0.00000000e+00  
    1.0000000000  1.66663000e+00  0.00000000e+00  
    1.0200000000  1.66628000e+00  0.00000000e+00  
    1.0400000000  1.66594000e+00  0.00000000e+00  
    1.0600000000  1.66561000e+00  0.00000000e+00  
    1.0800000000  1.66528000e+00  0.00000000e+00  
    1.1000000000  1.66496000e+00  0.00000000e+00  
    1.1200000000  1.66465000e+00  0.00000000e+00  
    1.1400000000  1.66435000e+00  0.00000000e+00  
    1.1600000000  1.66405000e+00  0.00000000e+00  
    1.1800000000  1.66376000e+00  0.00000000e+00  
    1.2000000000  1.66347000e+00  0.00000000e+00  
    1.2200000000  1.66318000e+00  0.00000000e+00  
    1.2400000000  1.66290000e+00  0.00000000e+00  
    1.2600000000  1.66262000e+00  0.00000000e+00  
    1.2800000000  1.66234000e+00  0.00000000e+00  
    1.3000000000  1.66207000e+00  0.00000000e+00  
    1.3200000000  1.66180000e+00  0.00000000e+00  
    1.3400000000  1.66152000e+00  0.00000000e+00  
    1.3600000000  1.66125000e+00  0.00000000e+00  
    1.3800000000  1.66099000e+00  0.00000000e+00  
    1.4000000000  1.66072000e+00  0.00000000e+00  
    1.4200000000  1.66045000e+00  0.00000000e+00  
    1.4400000000  1.66019000e+00  0.00000000e+00  
    1.4600000000  1.65992000e+00  0.00000000e+00  
    1.4800000000  1.65965000e+00  0.00000000e+00  
    1.5000000000  1.65939000e+00  0.00000000e+00  
    1.5200000000  1.65912000e+00  0.00000000e+00  
    1.5400000000  1.65886000e+00  0.00000000e+00  
    1.5600000000  1.65859000e+00  0.00000000e+00  
    1.5800000000  1.65832000e+00  0.00000000e+00  
    1.6000000000  1.65805000e+00  0.00000000e+00  
    1.6200000000  1.65778000e+00  0.00000000e+00  
    1.6400000000  1.65751000e+00  0.00000000e+00  
    1.6600000000  1.65724000e+00  0.00000000e+00  
    1.6800000000  1.65697000e+00  0.00000000e+00  
    1.7000000000  1.65670000e+00  0.00000000e+00  
    1.7200000000  1.65642000e+00  0.00000000e+00  
    1.7400000000  1.65615000e+00  0.00000000e+00  
    1.7600000000  1.65587000e+00  0.00000000e+00  
    1.7800000000  1.65559000e+00  0.00000000e+00  
    1.8000000000  1.65531000e+00  0.00000000e+00  
    1.8200000000  1.65503000e+00  0.00000000e+00  
    1.8400000000  1.65475000e+00  0.00000000e+00  
    1.8600000000  1.65446000e+00  0.00000000e+00  
    1.8800000000  1.65418000e+00  0.00000000e+00  
    1.9000000000  1.65389000e+00  0.00000000e+00  
    1.9200000000  1.65360000e+00  0.00000000e+00  
    1.9400000000  1.65330000e+00  0.00000000e+00  
    1.9600000000  1.65301000e+00  0.00000000e+00  
    1.9800000000  1.65271000e+00  0.00000000e+00  
    2.0000000000  1.65241000e+00  0.00000000e+00  
    2.0200000000  1.65211000e+00  0.00000000e+00  
    2.0400000000  1.65181000e+00  0.00000000e+00  
    2.0600000000  1.65150000e+00  0.00000000e+00  
    2.0800000000  1.65120000e+00  0.00000000e+00  
    2.1000000000  1.65089000e+00  0.00000000e+00  
    2.1200000000  1.65057000e+00  0.00000000e+00  
    2.1400000000  1.65026000e+00  0.00000000e+00  
    2.1600000000  1.64994000e+00  0.00000000e+00  
    2.1800000000  1.64962000e+00  0.00000000e+00  
    2.2000000000  1.64930000e+00  0.00000000e+00  
    2.2200000000  1.64898000e+00  0.00000000e+00  
    2.2400000000  1.64865000e+00  0.00000000e+00  
    2.2600000000  1.64832000e+00  0.00000000e+00  
    2.2800000000  1.64799000e+00  0.00000000e+00  
    2.3000000000  1.64765000e+00  0.00000000e+00  
    2.3188000000  1.64733000e+00  0.00000000e+00  
    2.3398000000  1.64698000e+00  0.00000000e+00  
    2.3568000000  1.64669000e+00  0.00000000e+00  
    2.3784000000  1.64632000e+00  0.00000000e+00  
    2.3960000000  1.64601000e+00  0.00000000e+00  
    2.4183000000  1.64562000e+00  0.00000000e+00  
    2.4365000000  1.64530000e+00  0.00000000e+00  
    2.4596000000  1.64489000e+00  0.00000000e+00  
    2.4784000000  1.64455000e+00  0.00000000e+00  
    2.4975000000  1.64420000e+00  0.00000000e+00  
    2.5169000000  1.64385000e+00  0.00000000e+00  
    2.5366000000  1.64349000e+00  0.00000000e+00  
    2.5567000000  1.64312000e+00  0.00000000e+00  
    2.5770000000  1.64274000e+00  0.00000000e+00  
    2.5976000000  1.64235000e+00  0.00000000e+00  
    2.6186000000  1.64195000e+00  0.00000000e+00  
    2.6400000000  1.64155000e+00  0.00000000e+00  
    2.6562000000  1.64123000e+00  0.00000000e+00  
    2.6782000000  1.64081000e+00  0.00000000e+00  
    2.6949000000  1.64048000e+00  0.00000000e+00  
    2.7175000000  1.64004000e+00  0.00000000e+00  
    2.7347000000  1.63970000e+00  0.00000000e+00  
    2.7579000000  1.63923000e+00  0.00000000e+00  
    2.7756000000  1.63887000e+00  0.00000000e+00  
    2.7996000000  1.63839000e+00  0.00000000e+00  
    2.8179000000  1.63801000e+00  0.00000000e+00  
    2.8364000000  1.63763000e+00  0.00000000e+00  
    2.8551000000  1.63724000e+00  0.00000000e+00  
    2.8741000000  1.63685000e+00  0.00000000e+00  
    2.8998000000  1.63630000e+00  0.00000000e+00  
    2.9194000000  1.63589000e+00  0.00000000e+00  
    2.9393000000  1.63546000e+00  0.00000000e+00  
    2.9594000000  1.63503000e+00  0.00000000e+00  
    2.9798000000  1.63458000e+00  0.00000000e+00  
    2.9936000000  1.63428000e+00  0.00000000e+00  
    3.0145000000  1.63382000e+00  0.00000000e+00  
    3.0357000000  1.63335000e+00  0.00000000e+00  
    3.0571000000  1.63287000e+00  0.00000000e+00  
    3.0789000000  1.63238000e+00  0.00000000e+00  
    3.0936000000  1.63205000e+00  0.00000000e+00  
    3.1159000000  1.63153000e+00  0.00000000e+00  
    3.1386000000  1.63101000e+00  0.00000000e+00  
    3.1538000000  1.63066000e+00  0.00000000e+00  
    3.1770000000  1.63012000e+00  0.00000000e+00  
    3.1927000000  1.62975000e+00  0.00000000e+00  
    3.2164000000  1.62918000e+00  0.00000000e+00  
    3.2325000000  1.62880000e+00  0.00000000e+00  
    3.2569000000  1.62821000e+00  0.00000000e+00  
    3.2733000000  1.62781000e+00  0.00000000e+00  
    3.2983000000  1.62720000e+00  0.00000000e+00  
    3.3152000000  1.62679000e+00  0.00000000e+00  
    3.3322000000  1.62636000e+00  0.00000000e+00  
    3.3581000000  1.62572000e+00  0.00000000e+00  
    3.3756000000  1.62528000e+00  0.00000000e+00  
    3.3933000000  1.62483000e+00  0.00000000e+00  
    3.4111000000  1.62437000e+00  0.00000000e+00  
    3.4383000000  1.62368000e+00  0.00000000e+00  
    3.4566000000  1.62320000e+00  0.00000000e+00  
    3.4751000000  1.62272000e+00  0.00000000e+00  
    3.4939000000  1.62223000e+00  0.00000000e+00  
    3.5128000000  1.62172000e+00  0.00000000e+00  
    3.5320000000  1.62122000e+00  0.00000000e+00  
    3.5513000000  1.62070000e+00  0.00000000e+00  
    3.5709000000  1.62017000e+00  0.00000000e+00  
    3.5907000000  1.61963000e+00  0.00000000e+00  
    3.6107000000  1.61908000e+00  0.00000000e+00  
    3.6309000000  1.61853000e+00  0.00000000e+00  
    3.6513000000  1.61796000e+00  0.00000000e+00  
    3.6720000000  1.61738000e+00  0.00000000e+00  
    3.6930000000  1.61679000e+00  0.00000000e+00  
    3.7141000000  1.61619000e+00  0.00000000e+00  
    3.7355000000  1.61558000e+00  0.00000000e+00  
    3.7572000000  1.61496000e+00  0.00000000e+00  
    3.7791000000  1.61432000e+00  0.00000000e+00  
    3.7901000000  1.61400000e+00  0.00000000e+00  
    3.8124000000  1.61335000e+00  0.00000000e+00  
    3.8350000000  1.61268000e+00  0.00000000e+00  
    3.8578000000  1.61200000e+00  0.00000000e+00  
    3.8693000000  1.61165000e+00  0.00000000e+00  
    3.8926000000  1.61095000e+00  0.00000000e+00  
    3.9161000000  1.61024000e+00  0.00000000e+00  
    3.9399000000  1.60951000e+00  0.00000000e+00  
    3.9519000000  1.60914000e+00  0.00000000e+00  
    3.9762000000  1.60839000e+00  0.00000000e+00  
    3.9884000000  1.60800000e+00  0.00000000e+00  
    4.0131000000  1.60723000e+00  0.00000000e+00  
    4.0381000000  1.60644000e+00  0.00000000e+00  
    4.0507000000  1.60603000e+00  0.00000000e+00  
    4.0762000000  1.60522000e+00  0.00000000e+00  
    4.0890000000  1.60480000e+00  0.00000000e+00  
    4.1150000000  1.60396000e+00  0.00000000e+00  
    4.1281000000  1.60353000e+00  0.00000000e+00  
    4.1546000000  1.60266000e+00  0.00000000e+00  
    4.1679000000  1.60221000e+00  0.00000000e+00  
    4.1949000000  1.60131000e+00  0.00000000e+00  
    4.2085000000  1.60086000e+00  0.00000000e+00  
    4.2360000000  1.59992000e+00  0.00000000e+00  
    4.2499000000  1.59945000e+00  0.00000000e+00  
    4.2780000000  1.59849000e+00  0.00000000e+00  
    4.2921000000  1.59800000e+00  0.00000000e+00  
    4.3064000000  1.59750000e+00  0.00000000e+00  
    4.3352000000  1.59649000e+00  0.00000000e+00  
    4.3498000000  1.59598000e+00  0.00000000e+00  
    4.3791000000  1.59494000e+00  0.00000000e+00  
    4.3940000000  1.59441000e+00  0.00000000e+00  
    4.4089000000  1.59387000e+00  0.00000000e+00  
    4.4391000000  1.59278000e+00  0.00000000e+00  
    4.4544000000  1.59222000e+00  0.00000000e+00  
    4.4697000000  1.59166000e+00  0.00000000e+00  
    4.4852000000  1.59109000e+00  0.00000000e+00  
    4.5165000000  1.58993000e+00  0.00000000e+00  
    4.5323000000  1.58933000e+00  0.00000000e+00  
    4.5482000000  1.58874000e+00  0.00000000e+00  
    4.5642000000  1.58813000e+00  0.00000000e+00  
    4.5965000000  1.58690000e+00  0.00000000e+00  
    4.6129000000  1.58627000e+00  0.00000000e+00  
    4.6294000000  1.58563000e+00  0.00000000e+00  
    4.6460000000  1.58498000e+00  0.00000000e+00  
    4.6795000000  1.58367000e+00  0.00000000e+00  
    4.6965000000  1.58300000e+00  0.00000000e+00  
    4.7136000000  1.58232000e+00  0.00000000e+00  
    4.7308000000  1.58163000e+00  0.00000000e+00  
    4.7481000000  1.58093000e+00  0.00000000e+00  
    4.7655000000  1.58023000e+00  0.00000000e+00  
    4.7831000000  1.57951000e+00  0.00000000e+00  
    4.8187000000  1.57805000e+00  0.00000000e+00  
    4.8367000000  1.57731000e+00  0.00000000e+00  
    4.8548000000  1.57655000e+00  0.00000000e+00  
    4.8730000000  1.57579000e+00  0.00000000e+00  
    4.8914000000  1.57501000e+00  0.00000000e+00  
    4.9100000000  1.57423000e+00  0.00000000e+00  
    4.9286000000  1.57343000e+00  0.00000000e+00  
    4.9474000000  1.57262000e+00  0.00000000e+00  
    4.9664000000  1.57180000e+00  0.00000000e+00  
    4.9855000000  1.57097000e+00  0.00000000e+00  
    5.0047000000  1.57013000e+00  0.00000000e+00  
    5.0241000000  1.56928000e+00  0.00000000e+00  
    5.0437000000  1.56841000e+00  0.00000000e+00  
    5.0634000000  1.56753000e+00  0.00000000e+00  
    5.0832000000  1.56664000e+00  0.00000000e+00  
    5.1033000000  1.56573000e+00  0.00000000e+00  
    5.1234000000  1.56482000e+00  0.00000000e+00  
    5.1438000000  1.56388000e+00  0.00000000e+00  
    5.1643000000  1.56294000e+00  0.00000000e+00  
    5.1849000000  1.56198000e+00  0.00000000e+00  
    5.2057000000  1.56100000e+00  0.00000000e+00  
    5.2267000000  1.56002000e+00  0.00000000e+00  
    5.2479000000  1.55901000e+00  0.00000000e+00  
    5.2692000000  1.55799000e+00  0.00000000e+00  
    5.2907000000  1.55696000e+00  0.00000000e+00  
    5.3124000000  1.55591000e+00  0.00000000e+00  
    5.3343000000  1.55484000e+00  0.00000000e+00  
    5.3563000000  1.55375000e+00  0.00000000e+00  
    5.3785000000  1.55265000e+00  0.00000000e+00  
    5.4009000000  1.55153000e+00  0.00000000e+00  
    5.4235000000  1.55040000e+00  0.00000000e+00  
    5.4463000000  1.54924000e+00  0.00000000e+00  
    5.4693000000  1.54807000e+00  0.00000000e+00  
    5.4925000000  1.54687000e+00  0.00000000e+00  
    5.5159000000  1.54566000e+00  0.00000000e+00  
    5.5394000000  1.54443000e+00  0.00000000e+00  
    5.5632000000  1.54317000e+00  0.00000000e+00  
    5.5872000000  1.54190000e+00  0.00000000e+00  
    5.6114000000  1.54060000e+00  0.00000000e+00  
    5.6358000000  1.53928000e+00  0.00000000e+00  
    5.6604000000  1.53794000e+00  0.00000000e+00  
    5.6852000000  1.53657000e+00  0.00000000e+00  
    5.7103000000  1.53518000e+00  0.00000000e+00  
    5.7355000000  1.53377000e+00  0.00000000e+00  
    5.7610000000  1.53233000e+00  0.00000000e+00  
    5.7867000000  1.53087000e+00  0.00000000e+00  
    5.8127000000  1.52937000e+00  0.00000000e+00  
    5.8389000000  1.52786000e+00  0.00000000e+00  
    5.8653000000  1.52631000e+00  0.00000000e+00  
    5.8919000000  1.52473000e+00  0.00000000e+00  
    5.9188000000  1.52313000e+00  0.00000000e+00  
    5.9460000000  1.52150000e+00  0.00000000e+00  
    5.9734000000  1.51983000e+00  0.00000000e+00  
    6.0011000000  1.51813000e+00  0.00000000e+00  
    6.0290000000  1.51640000e+00  0.00000000e+00  
    6.0571000000  1.51464000e+00  0.00000000e+00  
    6.0856000000  1.51284000e+00  0.00000000e+00  
    6.1143000000  1.51100000e+00  0.00000000e+00  
    6.1433000000  1.50913000e+00  0.00000000e+00  
    6.1725000000  1.50722000e+00  0.00000000e+00  
    6.2020000000  1.50527000e+00  0.00000000e+00  
    6.2319000000  1.50329000e+00  0.00000000e+00  
    6.2620000000  1.50126000e+00  0.00000000e+00  
    6.2924000000  1.49918000e+00  0.00000000e+00  
    6.3231000000  1.49707000e+00  0.00000000e+00  
    6.3541000000  1.49490000e+00  0.00000000e+00  
    6.3854000000  1.49270000e+00  0.00000000e+00  
    6.4170000000  1.49044000e+00  0.00000000e+00  
    6.4489000000  1.48813000e+00  0.00000000e+00  
    6.4811000000  1.48577000e+00  0.00000000e+00  
    6.5137000000  1.48336000e+00  0.00000000e+00  
    6.5466000000  1.48089000e+00  0.00000000e+00  
    6.5798000000  1.47837000e+00  0.00000000e+00  
    6.6134000000  1.47579000e+00  0.00000000e+00  
    6.6473000000  1.47315000e+00  0.00000000e+00  
    6.6816000000  1.47044000e+00  0.00000000e+00  
    6.7162000000  1.46767000e+00  0.00000000e+00  
    6.7512000000  1.46483000e+00  0.00000000e+00  
    6.7865000000  1.46192000e+00  0.00000000e+00  
    6.8223000000  1.45894000e+00  0.00000000e+00  
    6.8583000000  1.45589000e+00  0.00000000e+00  
    6.8948000000  1.45276000e+00  0.00000000e+00  
    6.9317000000  1.44954000e+00  0.00000000e+00  
    6.9690000000  1.44625000e+00  0.00000000e+00  
    7.0066000000  1.44286000e+00  0.00000000e+00  
    7.0447000000  1.43939000e+00  0.00000000e+00  
    7.0832000000  1.43582000e+00  0.00000000e+00  
    7.1221000000  1.43216000e+00  0.00000000e+00  
    7.1615000000  1.42839000e+00  0.00000000e+00  
    7.2013000000  1.42452000e+00  0.00000000e+00  
    7.2415000000  1.42054000e+00  0.00000000e+00  
    7.2822000000  1.41644000e+00  0.00000000e+00  
    7.3233000000  1.41223000e+00  0.00000000e+00  
    7.3649000000  1.40789000e+00  0.00000000e+00  
    7.4070000000  1.40342000e+00  0.00000000e+00  
    7.4496000000  1.39882000e+00  0.00000000e+00  
    7.4926000000  1.39408000e+00  0.00000000e+00  
    7.5362000000  1.38919000e+00  0.00000000e+00  
    7.5803000000  1.38414000e+00  0.00000000e+00  
    7.6249000000  1.37893000e+00  0.00000000e+00  
    7.6700000000  1.37356000e+00  0.00000000e+00  
    7.7156000000  1.36801000e+00  0.00000000e+00  
    7.7618000000  1.36227000e+00  0.00000000e+00  
    7.8086000000  1.35634000e+00  0.00000000e+00  
    7.8559000000  1.35021000e+00  0.00000000e+00  
    7.9038000000  1.34386000e+00  0.00000000e+00  
    7.9523000000  1.33728000e+00  0.00000000e+00  
    8.0014000000  1.33047000e+00  0.00000000e+00  
    8.0511000000  1.32340000e+00  0.00000000e+00  
    8.1014000000  1.31607000e+00  0.00000000e+00  
    8.1524000000  1.30846000e+00  0.00000000e+00  
    8.2040000000  1.30055000e+00  0.00000000e+00  
    8.2562000000  1.29233000e+00  0.00000000e+00  
    8.3091000000  1.28377000e+00  0.00000000e+00  
    8.3628000000  1.27485000e+00  0.00000000e+00  
    8.4171000000  1.26556000e+00  0.00000000e+00  
    8.4721000000  1.25586000e+00  0.00000000e+00  
    8.5278000000  1.24573000e+00  0.00000000e+00  
    8.5843000000  1.23514000e+00  0.00000000e+00  
    8.6415000000  1.22405000e+00  0.00000000e+00  
    8.6995000000  1.21243000e+00  0.00000000e+00  
    8.7583000000  1.20023000e+00  0.00000000e+00  
    8.8179000000  1.18742000e+00  0.00000000e+00  
    8.8783000000  1.17394000e+00  0.00000000e+00  
    8.9395000000  1.15975000e+00  0.00000000e+00  
    9.0016000000  1.14477000e+00  0.00000000e+00  
    9.0645000000  1.12895000e+00  0.00000000e+00  
    9.1284000000  1.11222000e+00  0.00000000e+00  
    9.1931000000  1.09450000e+00  0.00000000e+00  
    9.2588000000  1.07570000e+00  0.00000000e+00  
    9.3254000000  1.05574000e+00  0.00000000e+00  
    9.3930000000  1.03453000e+00  0.00000000e+00  
    9.4615000000  1.01195000e+00  0.00000000e+00  
    9.5311000000  9.87910000e-01  0.00000000e+00  
    9.6017000000  9.62300000e-01  0.00000000e+00  
    9.6733000000  9.35010000e-01  0.00000000e+00  
    9.7461000000  9.05980000e-01  0.00000000e+00  
    9.8199000000  8.75150000e-01  0.00000000e+00  
    9.8949000000  8.42540000e-01  0.00000000e+00  
    9.9710000000  8.08280000e-01  0.00000000e+00  
   10.0480000000  7.72680000e-01  0.00000000e+00  
   10.1270000000  7.36360000e-01  0.00000000e+00  
   10.2070000000  7.00350000e-01  0.00000000e+00  
   10.2880000000  6.66160000e-01  0.00000000e+00  
   10.3700000000  6.35670000e-01  0.00000000e+00  
   10.4530000000  6.10800000e-01  0.00000000e+00  
   10.5380000000  5.92890000e-01  0.00000000e+00  
   10.6250000000  5.82420000e-01  0.00000000e+00  
   10.7130000000  5.79130000e-01  0.00000000e+00  
   10.8020000000  5.82310000e-01  0.00000000e+00  
   10.8930000000  5.91160000e-01  0.00000000e+00  
   10.9850000000  6.04930000e-01  0.00000000e+00  
   11.0790000000  6.23010000e-01  0.00000000e+00  
   11.1740000000  6.44910000e-01  0.00000000e+00  
   11.2720000000  6.70240000e-01  0.00000000e+00  
   11.3700000000  6.98700000e-01  0.00000000e+00  
   11.4710000000  7.30040000e-01  0.00000000e+00  
   11.5730000000  7.64070000e-01  0.00000000e+00  
   11.6780000000  8.00600000e-01  0.00000000e+00  
   11.7840000000  8.39460000e-01  0.00000000e+00  
   11.8920000000  8.80530000e-01  0.00000000e+00  
   12.0020000000  9.23650000e-01  0.00000000e+00  
   12.1140000000  9.68670000e-01  0.00000000e+00  
   12.2290000000  1.01545000e+00  0.00000000e+00  
   12.3450000000  1.06385000e+00  0.00000000e+00  
