%% wavelength, n, k
    0.2066400000  1.27430000e+00  1.58100000e+00  
    0.2076700000  1.27710000e+00  1.59750000e+00  
    0.2087000000  1.27990000e+00  1.61440000e+00  
    0.2097500000  1.28290000e+00  1.63160000e+00  
    0.2108100000  1.28590000e+00  1.64930000e+00  
    0.2118800000  1.28900000e+00  1.66730000e+00  
    0.2129500000  1.29230000e+00  1.68590000e+00  
    0.2140400000  1.29560000e+00  1.70490000e+00  
    0.2151500000  1.29910000e+00  1.72440000e+00  
    0.2162600000  1.30270000e+00  1.74440000e+00  
    0.2173800000  1.30650000e+00  1.76500000e+00  
    0.2185200000  1.31040000e+00  1.78620000e+00  
    0.2196700000  1.31450000e+00  1.80800000e+00  
    0.2208300000  1.31870000e+00  1.83050000e+00  
    0.2220000000  1.32320000e+00  1.85370000e+00  
    0.2231800000  1.32790000e+00  1.87770000e+00  
    0.2243800000  1.33280000e+00  1.90240000e+00  
    0.2255900000  1.33810000e+00  1.92800000e+00  
    0.2268100000  1.34360000e+00  1.95450000e+00  
    0.2280500000  1.34950000e+00  1.98200000e+00  
    0.2293000000  1.35580000e+00  2.01060000e+00  
    0.2305700000  1.36250000e+00  2.04030000e+00  
    0.2318400000  1.36980000e+00  2.07110000e+00  
    0.2331400000  1.37760000e+00  2.10330000e+00  
    0.2344400000  1.38600000e+00  2.13680000e+00  
    0.2357700000  1.39520000e+00  2.17180000e+00  
    0.2371000000  1.40520000e+00  2.20850000e+00  
    0.2384500000  1.41620000e+00  2.24680000e+00  
    0.2398200000  1.42840000e+00  2.28700000e+00  
    0.2412000000  1.44180000e+00  2.32910000e+00  
    0.2426000000  1.45680000e+00  2.37340000e+00  
    0.2440200000  1.47350000e+00  2.42000000e+00  
    0.2454500000  1.49220000e+00  2.46910000e+00  
    0.2469000000  1.51340000e+00  2.52070000e+00  
    0.2483700000  1.53730000e+00  2.57520000e+00  
    0.2498500000  1.56460000e+00  2.63260000e+00  
    0.2513500000  1.59590000e+00  2.69300000e+00  
    0.2528700000  1.63170000e+00  2.75670000e+00  
    0.2544100000  1.67300000e+00  2.82350000e+00  
    0.2559700000  1.72090000e+00  2.89360000e+00  
    0.2575500000  1.77650000e+00  2.96660000e+00  
    0.2591400000  1.84130000e+00  3.04220000e+00  
    0.2607600000  1.91690000e+00  3.11950000e+00  
    0.2623900000  2.00510000e+00  3.19750000e+00  
    0.2640500000  2.10810000e+00  3.27410000e+00  
    0.2657300000  2.22770000e+00  3.34680000e+00  
    0.2674300000  2.36560000e+00  3.41170000e+00  
    0.2691500000  2.52280000e+00  3.46370000e+00  
    0.2708900000  2.69870000e+00  3.49650000e+00  
    0.2726600000  2.89010000e+00  3.50300000e+00  
    0.2744500000  3.09090000e+00  3.47650000e+00  
    0.2762600000  3.29160000e+00  3.41210000e+00  
    0.2781000000  3.48020000e+00  3.30910000e+00  
    0.2799600000  3.64460000e+00  3.17190000e+00  
    0.2818500000  3.77530000e+00  3.00980000e+00  
    0.2837600000  3.86780000e+00  2.83490000e+00  
    0.2857000000  3.92280000e+00  2.65920000e+00  
    0.2876600000  3.94500000e+00  2.49220000e+00  
    0.2896600000  3.94110000e+00  2.34030000e+00  
    0.2916800000  3.91810000e+00  2.20640000e+00  
    0.2937200000  3.88230000e+00  2.09140000e+00  
    0.2958000000  3.83880000e+00  1.99430000e+00  
    0.2979100000  3.79140000e+00  1.91360000e+00  
    0.3000500000  3.74290000e+00  1.84740000e+00  
    0.3022200000  3.69510000e+00  1.79360000e+00  
    0.3044200000  3.64930000e+00  1.75050000e+00  
    0.3066500000  3.60640000e+00  1.71640000e+00  
    0.3089100000  3.56670000e+00  1.68990000e+00  
    0.3112100000  3.53040000e+00  1.66980000e+00  
    0.3135400000  3.49780000e+00  1.65510000e+00  
    0.3159100000  3.46880000e+00  1.64500000e+00  
    0.3183200000  3.44320000e+00  1.63860000e+00  
    0.3207600000  3.42110000e+00  1.63550000e+00  
    0.3232400000  3.40230000e+00  1.63500000e+00  
    0.3257600000  3.38650000e+00  1.63690000e+00  
    0.3283100000  3.37380000e+00  1.64070000e+00  
    0.3309100000  3.36400000e+00  1.64620000e+00  
    0.3335500000  3.35690000e+00  1.65300000e+00  
    0.3362300000  3.35240000e+00  1.66100000e+00  
    0.3389600000  3.35040000e+00  1.67000000e+00  
    0.3417300000  3.35080000e+00  1.67980000e+00  
    0.3445400000  3.35360000e+00  1.69030000e+00  
    0.3474100000  3.35850000e+00  1.70140000e+00  
    0.3503200000  3.36570000e+00  1.71310000e+00  
    0.3532800000  3.37500000e+00  1.72510000e+00  
    0.3562900000  3.38630000e+00  1.73740000e+00  
    0.3593500000  3.39960000e+00  1.75010000e+00  
    0.3624600000  3.41500000e+00  1.76290000e+00  
    0.3656300000  3.43220000e+00  1.77590000e+00  
    0.3688600000  3.45150000e+00  1.78900000e+00  
    0.3721400000  3.47260000e+00  1.80220000e+00  
    0.3754800000  3.49570000e+00  1.81550000e+00  
    0.3788800000  3.52070000e+00  1.82870000e+00  
    0.3823500000  3.54770000e+00  1.84190000e+00  
    0.3858800000  3.57660000e+00  1.85510000e+00  
    0.3894700000  3.60760000e+00  1.86810000e+00  
    0.3931300000  3.64060000e+00  1.88110000e+00  
    0.3968600000  3.67560000e+00  1.89390000e+00  
    0.4006600000  3.71280000e+00  1.90660000e+00  
    0.4045400000  3.75210000e+00  1.91910000e+00  
    0.4084900000  3.79370000e+00  1.93140000e+00  
    0.4125200000  3.83750000e+00  1.94340000e+00  
    0.4166300000  3.88370000e+00  1.95530000e+00  
    0.4208200000  3.93240000e+00  1.96680000e+00  
    0.4251000000  3.98350000e+00  1.97810000e+00  
    0.4294700000  4.03720000e+00  1.98920000e+00  
    0.4339200000  4.09350000e+00  2.00000000e+00  
    0.4384700000  4.15230000e+00  2.01060000e+00  
    0.4431200000  4.21370000e+00  2.02100000e+00  
    0.4478600000  4.27740000e+00  2.03140000e+00  
    0.4527100000  4.34320000e+00  2.04200000e+00  
    0.4576700000  4.41070000e+00  2.05280000e+00  
    0.4627300000  4.47910000e+00  2.06440000e+00  
    0.4679100000  4.54750000e+00  2.07720000e+00  
    0.4732000000  4.61420000e+00  2.09200000e+00  
    0.4786200000  4.67750000e+00  2.10940000e+00  
    0.4841600000  4.73500000e+00  2.13060000e+00  
    0.4898300000  4.78470000e+00  2.15660000e+00  
    0.4956400000  4.82500000e+00  2.18800000e+00  
    0.5015800000  4.82680000e+00  2.16310000e+00  
    0.5076700000  4.71120000e+00  1.88910000e+00  
    0.5139100000  4.61560000e+00  1.66520000e+00  
    0.5203000000  4.52710000e+00  1.46260000e+00  
    0.5268600000  4.44260000e+00  1.26980000e+00  
    0.5335800000  4.36180000e+00  1.08000000e+00  
    0.5404800000  4.28550000e+00  8.89240000e-01  
    0.5475600000  4.22190000e+00  7.34380000e-01  
    0.5548200000  4.18590000e+00  7.24230000e-01  
    0.5622800000  4.15030000e+00  7.13630000e-01  
    0.5699400000  4.11550000e+00  7.02510000e-01  
    0.5778200000  4.08170000e+00  6.90820000e-01  
    0.5859100000  4.04910000e+00  6.78530000e-01  
    0.5942400000  4.01770000e+00  6.65640000e-01  
    0.6028100000  3.98750000e+00  6.52130000e-01  
    0.6116200000  3.95850000e+00  6.38020000e-01  
    0.6207000000  3.93060000e+00  6.23310000e-01  
    0.6300500000  3.90390000e+00  6.08000000e-01  
    0.6396900000  3.87820000e+00  5.92120000e-01  
    0.6496300000  3.85360000e+00  5.75670000e-01  
    0.6598800000  3.82990000e+00  5.58670000e-01  
    0.6704600000  3.80720000e+00  5.41150000e-01  
    0.6813800000  3.78540000e+00  5.23120000e-01  
    0.6926700000  3.76440000e+00  5.04600000e-01  
    0.7043300000  3.74430000e+00  4.85630000e-01  
    0.7164000000  3.72490000e+00  4.66220000e-01  
    0.7288900000  3.70640000e+00  4.46430000e-01  
    0.7418200000  3.68860000e+00  4.26270000e-01  
    0.7552100000  3.67150000e+00  4.05790000e-01  
    0.7691000000  3.65520000e+00  3.85050000e-01  
    0.7835100000  3.63950000e+00  3.64100000e-01  
    0.7984700000  3.62450000e+00  3.42990000e-01  
    0.8140200000  3.61020000e+00  3.21800000e-01  
    0.8301800000  3.59650000e+00  3.00620000e-01  
    0.8469900000  3.58350000e+00  2.79530000e-01  
    0.8645000000  3.57120000e+00  2.58640000e-01  
    0.8827500000  3.55940000e+00  2.38080000e-01  
    0.9017900000  3.54830000e+00  2.17970000e-01  
    0.9216600000  3.53790000e+00  1.98490000e-01  
    0.9424300000  3.52800000e+00  1.79820000e-01  
    0.9641600000  3.51870000e+00  1.62170000e-01  
    0.9869100000  3.51010000e+00  1.45780000e-01  
    1.0108000000  3.50200000e+00  1.30930000e-01  
    1.0358000000  3.49450000e+00  1.17950000e-01  
    1.0621000000  3.48760000e+00  1.07210000e-01  
    1.0898000000  3.48130000e+00  9.91400000e-02  
    1.1190000000  3.47550000e+00  9.42510000e-02  
    1.1497000000  3.47040000e+00  9.31270000e-02  
    1.1822000000  3.46590000e+00  9.52200000e-02  
    1.2166000000  3.46190000e+00  9.75380000e-02  
    1.2531000000  3.45840000e+00  9.98780000e-02  
    1.2918000000  3.45560000e+00  1.02210000e-01  
    1.3329000000  3.45340000e+00  1.04490000e-01  
    1.3768000000  3.45190000e+00  1.06650000e-01  
    1.4237000000  3.45110000e+00  1.08580000e-01  
    1.4739000000  3.45120000e+00  1.10090000e-01  
    1.5277000000  3.45210000e+00  1.10800000e-01  
    1.5857000000  3.45410000e+00  1.09710000e-01  
    1.6482000000  3.45010000e+00  1.02830000e-01  
    1.7158000000  3.44520000e+00  1.06870000e-01  
    1.7892000000  3.44380000e+00  1.10990000e-01  
    1.8692000000  3.44430000e+00  1.15190000e-01  
    1.9566000000  3.44650000e+00  1.19430000e-01  
    2.0527000000  3.45040000e+00  1.23610000e-01  
    2.1586000000  3.45620000e+00  1.27560000e-01  
    2.2761000000  3.46410000e+00  1.31030000e-01  
    2.4071000000  3.47480000e+00  1.33580000e-01  
    2.5541000000  3.48860000e+00  1.34480000e-01  
    2.7203000000  3.50640000e+00  1.32460000e-01  
    2.9095000000  3.52920000e+00  1.25050000e-01  
    3.1271000000  3.55840000e+00  1.06590000e-01  
    3.3798000000  3.59600000e+00  5.43380000e-02  
    3.6770000000  3.53370000e+00  2.08480000e-03  
    4.0315000000  3.50980000e+00  1.91080000e-03  
    4.4616000000  3.49580000e+00  1.73040000e-03  
    4.9945000000  3.48610000e+00  1.54770000e-03  
    5.6719000000  3.47880000e+00  1.36380000e-03  
    6.5619000000  3.47320000e+00  1.17930000e-03  
    7.7832000000  3.46890000e+00  9.94440000e-04  
    9.5631000000  3.46550000e+00  8.09440000e-04  
   12.3980000000  3.46300000e+00  6.24360000e-04  
